#Wavelength[nm]	AOI 10 deg
3000	0.00073
2999	0.00075
2998	0.00076
2997	0.00078
2996	0.0008
2995	0.00082
2994	0.00084
2993	0.00086
2992	0.00088
2991	0.00091
2990	0.00093
2989	0.00095
2988	0.00098
2987	0.001
2986	0.00102
2985	0.00104
2984	0.00106
2983	0.00108
2982	0.0011
2981	0.00112
2980	0.00114
2979	0.00115
2978	0.00116
2977	0.00117
2976	0.00118
2975	0.00119
2974	0.00119
2973	0.00119
2972	0.00119
2971	0.00119
2970	0.00119
2969	0.00118
2968	0.00118
2967	0.00117
2966	0.00116
2965	0.00115
2964	0.00113
2963	0.00112
2962	0.0011
2961	0.00109
2960	0.00107
2959	0.00105
2958	0.00103
2957	0.00101
2956	0.00099
2955	0.00097
2954	0.00095
2953	0.00093
2952	0.00091
2951	0.00089
2950	0.00087
2949	0.00084
2948	0.00082
2947	0.0008
2946	0.00078
2945	0.00076
2944	0.00074
2943	0.00072
2942	0.0007
2941	0.00068
2940	0.00066
2939	0.00064
2938	0.00063
2937	0.00061
2936	0.0006
2935	0.00058
2934	0.00057
2933	0.00056
2932	0.00055
2931	0.00054
2930	0.00053
2929	0.00052
2928	0.00051
2927	0.00051
2926	0.0005
2925	0.0005
2924	0.0005
2923	0.00049
2922	0.00049
2921	0.00049
2920	0.0005
2919	0.0005
2918	0.0005
2917	0.00051
2916	0.00052
2915	0.00053
2914	0.00054
2913	0.00055
2912	0.00056
2911	0.00058
2910	0.0006
2909	0.00062
2908	0.00064
2907	0.00067
2906	0.0007
2905	0.00073
2904	0.00077
2903	0.00081
2902	0.00085
2901	0.0009
2900	0.00095
2899	0.001
2898	0.00106
2897	0.00112
2896	0.00118
2895	0.00123
2894	0.00129
2893	0.00134
2892	0.00139
2891	0.00144
2890	0.00148
2889	0.00152
2888	0.00155
2887	0.00157
2886	0.00159
2885	0.0016
2884	0.00161
2883	0.00162
2882	0.00162
2881	0.00162
2880	0.00161
2879	0.0016
2878	0.00159
2877	0.00157
2876	0.00155
2875	0.00153
2874	0.0015
2873	0.00148
2872	0.00145
2871	0.00142
2870	0.00139
2869	0.00136
2868	0.00133
2867	0.00129
2866	0.00126
2865	0.00122
2864	0.00119
2863	0.00115
2862	0.00112
2861	0.00108
2860	0.00105
2859	0.00101
2858	0.00098
2857	0.00095
2856	0.00092
2855	0.00089
2854	0.00087
2853	0.00084
2852	0.00081
2851	0.00079
2850	0.00077
2849	0.00075
2848	0.00073
2847	0.00072
2846	0.00071
2845	0.0007
2844	0.0007
2843	0.0007
2842	0.0007
2841	0.00071
2840	0.00073
2839	0.00075
2838	0.00078
2837	0.00081
2836	0.00086
2835	0.00091
2834	0.00097
2833	0.00103
2832	0.0011
2831	0.00117
2830	0.00123
2829	0.00128
2828	0.00132
2827	0.00135
2826	0.00137
2825	0.00138
2824	0.00139
2823	0.00138
2822	0.00137
2821	0.00136
2820	0.00135
2819	0.00134
2818	0.00132
2817	0.0013
2816	0.00127
2815	0.00124
2814	0.0012
2813	0.00116
2812	0.00112
2811	0.00108
2810	0.00104
2809	0.00101
2808	0.00098
2807	0.00094
2806	0.00091
2805	0.00088
2804	0.00084
2803	0.0008
2802	0.00076
2801	0.00072
2800	0.00068
2799	0.00064
2798	0.00061
2797	0.00057
2796	0.00054
2795	0.00051
2794	0.00049
2793	0.00046
2792	0.00044
2791	0.00041
2790	0.00038
2789	0.00035
2788	0.00032
2787	0.00029
2786	0.00027
2785	0.00024
2784	0.00021
2783	0.00019
2782	0.00017
2781	0.00015
2780	0.00013
2779	0.00012
2778	0.00011
2777	0.0001
2776	0.00009
2775	0.00008
2774	0.00007
2773	0.00007
2772	0.00006
2771	0.00006
2770	0.00006
2769	0.00005
2768	0.00005
2767	0.00005
2766	0.00005
2765	0.00005
2764	0.00004
2763	0.00004
2762	0.00004
2761	0.00004
2760	0.00004
2759	0.00004
2758	0.00004
2757	0.00004
2756	0.00004
2755	0.00004
2754	0.00004
2753	0.00004
2752	0.00004
2751	0.00004
2750	0.00004
2749	0.00004
2748	0.00004
2747	0.00004
2746	0.00004
2745	0.00004
2744	0.00004
2743	0.00004
2742	0.00004
2741	0.00004
2740	0.00004
2739	0.00004
2738	0.00004
2737	0.00004
2736	0.00005
2735	0.00005
2734	0.00005
2733	0.00005
2732	0.00005
2731	0.00005
2730	0.00005
2729	0.00005
2728	0.00005
2727	0.00005
2726	0.00005
2725	0.00005
2724	0.00005
2723	0.00005
2722	0.00005
2721	0.00005
2720	0.00005
2719	0.00005
2718	0.00005
2717	0.00005
2716	0.00004
2715	0.00004
2714	0.00004
2713	0.00004
2712	0.00004
2711	0.00004
2710	0.00004
2709	0.00004
2708	0.00004
2707	0.00004
2706	0.00003
2705	0.00003
2704	0.00003
2703	0.00003
2702	0.00003
2701	0.00003
2700	0.00003
2699	0.00003
2698	0.00003
2697	0.00002
2696	0.00002
2695	0.00002
2694	0.00002
2693	0.00002
2692	0.00002
2691	0.00002
2690	0.00002
2689	0.00002
2688	0.00002
2687	0.00002
2686	0.00001
2685	0.00001
2684	0.00001
2683	0.00001
2682	0.00001
2681	0.00001
2680	0.00001
2679	0.00001
2678	0.00001
2677	0.00001
2676	0.00001
2675	0.00001
2674	0.00001
2673	0.00001
2672	0.00001
2671	0.00001
2670	0.00001
2669	0.00001
2668	0.00001
2667	0.00001
2666	0.00001
2665	0.00001
2664	0.00001
2663	0.00001
2662	0.00001
2661	0.00001
2660	0.00001
2659	0.00001
2658	0.00001
2657	0.00001
2656	0.00001
2655	0.00001
2654	0.00001
2653	0.00001
2652	0.00001
2651	0.00001
2650	0.00001
2649	0.00001
2648	0.00001
2647	0.00001
2646	0.00001
2645	0.00001
2644	0.00001
2643	0.00001
2642	0.00001
2641	0.00001
2640	0.00001
2639	0.00001
2638	0.00001
2637	0.00001
2636	0.00001
2635	0.00001
2634	0.00001
2633	0.00001
2632	0.00001
2631	0.00001
2630	0.00002
2629	0.00002
2628	0.00002
2627	0.00002
2626	0.00002
2625	0.00002
2624	0.00002
2623	0.00003
2622	0.00003
2621	0.00003
2620	0.00003
2619	0.00003
2618	0.00004
2617	0.00004
2616	0.00005
2615	0.00005
2614	0.00006
2613	0.00006
2612	0.00007
2611	0.00008
2610	0.00009
2609	0.0001
2608	0.00011
2607	0.00013
2606	0.00014
2605	0.00017
2604	0.00019
2603	0.00022
2602	0.00025
2601	0.00029
2600	0.00033
2599	0.00038
2598	0.00044
2597	0.0005
2596	0.00057
2595	0.00064
2594	0.00072
2593	0.0008
2592	0.00089
2591	0.00097
2590	0.00106
2589	0.00115
2588	0.00123
2587	0.00132
2586	0.0014
2585	0.00148
2584	0.00155
2583	0.00163
2582	0.00169
2581	0.00175
2580	0.00181
2579	0.00186
2578	0.00191
2577	0.00195
2576	0.00198
2575	0.00201
2574	0.00204
2573	0.00206
2572	0.00208
2571	0.00209
2570	0.0021
2569	0.0021
2568	0.0021
2567	0.00209
2566	0.00207
2565	0.00206
2564	0.00203
2563	0.00201
2562	0.00197
2561	0.00194
2560	0.0019
2559	0.00185
2558	0.0018
2557	0.00175
2556	0.0017
2555	0.00164
2554	0.00158
2553	0.00152
2552	0.00145
2551	0.00139
2550	0.00133
2549	0.00128
2548	0.00123
2547	0.00118
2546	0.00114
2545	0.0011
2544	0.00107
2543	0.00104
2542	0.00102
2541	0.00101
2540	0.001
2539	0.00099
2538	0.001
2537	0.00101
2536	0.00102
2535	0.00104
2534	0.00106
2533	0.00109
2532	0.00112
2531	0.00114
2530	0.00117
2529	0.00119
2528	0.00121
2527	0.00122
2526	0.00123
2525	0.00123
2524	0.00123
2523	0.00123
2522	0.00122
2521	0.00121
2520	0.00119
2519	0.00117
2518	0.00115
2517	0.00112
2516	0.0011
2515	0.00107
2514	0.00104
2513	0.00101
2512	0.00097
2511	0.00094
2510	0.0009
2509	0.00086
2508	0.00082
2507	0.00078
2506	0.00074
2505	0.0007
2504	0.00066
2503	0.00062
2502	0.00058
2501	0.00054
2500	0.00051
2499	0.00047
2498	0.00044
2497	0.00041
2496	0.00038
2495	0.00036
2494	0.00034
2493	0.00032
2492	0.0003
2491	0.00029
2490	0.00027
2489	0.00027
2488	0.00026
2487	0.00025
2486	0.00025
2485	0.00025
2484	0.00025
2483	0.00026
2482	0.00027
2481	0.00028
2480	0.00029
2479	0.00031
2478	0.00034
2477	0.00037
2476	0.0004
2475	0.00044
2474	0.00049
2473	0.00054
2472	0.00059
2471	0.00063
2470	0.00067
2469	0.0007
2468	0.00072
2467	0.00073
2466	0.00074
2465	0.00074
2464	0.00074
2463	0.00074
2462	0.00074
2461	0.00073
2460	0.00073
2459	0.00071
2458	0.00069
2457	0.00067
2456	0.00065
2455	0.00062
2454	0.0006
2453	0.00058
2452	0.00057
2451	0.00055
2450	0.00053
2449	0.00051
2448	0.00049
2447	0.00047
2446	0.00044
2445	0.00042
2444	0.0004
2443	0.00038
2442	0.00037
2441	0.00036
2440	0.00034
2439	0.00033
2438	0.00032
2437	0.0003
2436	0.00029
2435	0.00027
2434	0.00026
2433	0.00024
2432	0.00023
2431	0.00022
2430	0.00021
2429	0.0002
2428	0.00019
2427	0.00019
2426	0.00019
2425	0.00019
2424	0.00019
2423	0.00019
2422	0.0002
2421	0.0002
2420	0.0002
2419	0.00021
2418	0.00021
2417	0.00021
2416	0.00021
2415	0.00021
2414	0.00021
2413	0.00021
2412	0.00021
2411	0.00021
2410	0.00021
2409	0.00021
2408	0.0002
2407	0.0002
2406	0.00019
2405	0.00019
2404	0.00019
2403	0.00018
2402	0.00018
2401	0.00017
2400	0.00016
2399	0.00016
2398	0.00015
2397	0.00015
2396	0.00014
2395	0.00013
2394	0.00013
2393	0.00012
2392	0.00012
2391	0.00011
2390	0.00011
2389	0.00011
2388	0.0001
2387	0.0001
2386	0.00011
2385	0.00012
2384	0.00013
2383	0.00016
2382	0.00022
2381	0.00029
2380	0.00035
2379	0.0004
2378	0.00041
2377	0.00042
2376	0.00042
2375	0.00044
2374	0.00042
2373	0.00035
2372	0.00031
2371	0.00032
2370	0.00036
2369	0.00043
2368	0.00043
2367	0.00037
2366	0.0003
2365	0.00026
2364	0.00024
2363	0.00024
2362	0.00024
2361	0.00024
2360	0.00022
2359	0.00021
2358	0.00019
2357	0.00018
2356	0.00017
2355	0.00016
2354	0.00014
2353	0.00012
2352	0.0001
2351	0.00011
2350	0.0001
2349	0.0001
2348	0.00011
2347	0.0001
2346	0.0001
2345	0.0001
2344	0.00008
2343	0.00005
2342	0.00005
2341	0.00004
2340	0.00003
2339	0.00002
2338	0.00001
2337	0.00001
2336	0.00001
2335	0
2334	0
2333	0
2332	0
2331	0
2330	0
2329	0
2328	0
2327	0
2326	0
2325	0
2324	0
2323	0
2322	0
2321	0
2320	0
2319	0
2318	0
2317	0
2316	0
2315	0
2314	0
2313	0
2312	0
2311	0
2310	0
2309	0
2308	0
2307	0
2306	0
2305	0
2304	0
2303	0
2302	0
2301	0
2300	0
2299	0
2298	0
2297	0
2296	0
2295	0
2294	0
2293	0
2292	0
2291	0
2290	0
2289	0
2288	0
2287	0.00001
2286	0.00001
2285	0.00002
2284	0.00005
2283	0.00006
2282	0.00009
2281	0.00013
2280	0.00013
2279	0.0001
2278	0.00008
2277	0.00009
2276	0.00016
2275	0.00011
2274	0.00009
2273	0.00012
2272	0.00011
2271	0.0001
2270	0.0001
2269	0.0001
2268	0.00011
2267	0.00011
2266	0.00009
2265	0.00008
2264	0.00008
2263	0.00009
2262	0.00008
2261	0.0001
2260	0.00006
2259	0.00004
2258	0.00004
2257	0.00003
2256	0.00001
2255	0.00002
2254	0.00001
2253	0.00001
2252	0.00002
2251	0.00001
2250	0.00001
2249	0.00001
2248	0
2247	0
2246	0
2245	0
2244	0
2243	0
2242	0
2241	0
2240	0
2239	0
2238	0
2237	0
2236	0
2235	0
2234	0
2233	0
2232	0
2231	0
2230	0
2229	0
2228	0
2227	0
2226	0
2225	0
2224	0
2223	0
2222	0
2221	0
2220	0
2219	0
2218	0.00001
2217	0.00001
2216	0.00001
2215	0.00001
2214	0.00001
2213	0.00001
2212	0.00001
2211	0.00002
2210	0.00002
2209	0.00002
2208	0.00003
2207	0.00003
2206	0.00004
2205	0.00005
2204	0.00005
2203	0.00006
2202	0.00007
2201	0.00008
2200	0.00009
2199	0.0001
2198	0.0001
2197	0.00011
2196	0.00012
2195	0.00013
2194	0.00013
2193	0.00014
2192	0.00015
2191	0.00015
2190	0.00016
2189	0.00017
2188	0.00018
2187	0.00019
2186	0.0002
2185	0.00021
2184	0.00023
2183	0.00024
2182	0.00027
2181	0.00029
2180	0.00032
2179	0.00035
2178	0.00038
2177	0.00041
2176	0.00043
2175	0.00044
2174	0.00045
2173	0.00045
2172	0.00046
2171	0.00046
2170	0.00046
2169	0.00045
2168	0.00044
2167	0.00043
2166	0.00042
2165	0.00041
2164	0.0004
2163	0.00038
2162	0.00037
2161	0.00035
2160	0.00034
2159	0.00032
2158	0.0003
2157	0.00028
2156	0.00026
2155	0.00023
2154	0.00021
2153	0.00019
2152	0.00017
2151	0.00015
2150	0.00014
2149	0.00013
2148	0.00011
2147	0.0001
2146	0.00009
2145	0.00008
2144	0.00008
2143	0.00007
2142	0.00006
2141	0.00006
2140	0.00006
2139	0.00005
2138	0.00005
2137	0.00005
2136	0.00004
2135	0.00004
2134	0.00004
2133	0.00004
2132	0.00004
2131	0.00004
2130	0.00003
2129	0.00003
2128	0.00003
2127	0.00003
2126	0.00003
2125	0.00003
2124	0.00003
2123	0.00003
2122	0.00003
2121	0.00002
2120	0.00002
2119	0.00002
2118	0.00002
2117	0.00002
2116	0.00002
2115	0.00002
2114	0.00002
2113	0.00002
2112	0.00002
2111	0.00002
2110	0.00002
2109	0.00002
2108	0.00002
2107	0.00002
2106	0.00002
2105	0.00002
2104	0.00002
2103	0.00002
2102	0.00002
2101	0.00003
2100	0.00003
2099	0.00003
2098	0.00003
2097	0.00003
2096	0.00003
2095	0.00003
2094	0.00003
2093	0.00004
2092	0.00004
2091	0.00004
2090	0.00004
2089	0.00004
2088	0.00004
2087	0.00004
2086	0.00004
2085	0.00004
2084	0.00004
2083	0.00004
2082	0.00004
2081	0.00004
2080	0.00004
2079	0.00004
2078	0.00004
2077	0.00004
2076	0.00004
2075	0.00004
2074	0.00004
2073	0.00004
2072	0.00004
2071	0.00003
2070	0.00003
2069	0.00003
2068	0.00003
2067	0.00003
2066	0.00003
2065	0.00003
2064	0.00003
2063	0.00003
2062	0.00003
2061	0.00003
2060	0.00003
2059	0.00003
2058	0.00003
2057	0.00003
2056	0.00003
2055	0.00003
2054	0.00003
2053	0.00004
2052	0.00004
2051	0.00004
2050	0.00005
2049	0.00005
2048	0.00006
2047	0.00006
2046	0.00007
2045	0.00008
2044	0.0001
2043	0.00012
2042	0.00014
2041	0.00017
2040	0.00021
2039	0.00027
2038	0.00034
2037	0.00042
2036	0.00052
2035	0.00063
2034	0.00073
2033	0.00083
2032	0.00091
2031	0.00099
2030	0.00106
2029	0.00113
2028	0.00119
2027	0.00124
2026	0.00128
2025	0.00131
2024	0.00135
2023	0.00138
2022	0.00142
2021	0.00146
2020	0.0015
2019	0.00154
2018	0.00158
2017	0.00162
2016	0.00165
2015	0.00168
2014	0.00169
2013	0.00169
2012	0.00167
2011	0.00164
2010	0.0016
2009	0.00156
2008	0.00151
2007	0.00146
2006	0.0014
2005	0.00134
2004	0.00128
2003	0.00122
2002	0.00116
2001	0.00111
2000	0.00105
1999	0.00099
1998	0.00094
1997	0.00088
1996	0.00082
1995	0.00076
1994	0.0007
1993	0.00064
1992	0.00058
1991	0.00053
1990	0.00048
1989	0.00043
1988	0.00039
1987	0.00035
1986	0.00032
1985	0.00029
1984	0.00027
1983	0.00026
1982	0.00024
1981	0.00024
1980	0.00023
1979	0.00023
1978	0.00023
1977	0.00024
1976	0.00024
1975	0.00026
1974	0.00027
1973	0.00029
1972	0.00032
1971	0.00035
1970	0.0004
1969	0.00045
1968	0.00051
1967	0.00059
1966	0.00068
1965	0.00077
1964	0.00087
1963	0.00097
1962	0.00105
1961	0.00113
1960	0.00119
1959	0.00125
1958	0.0013
1957	0.00133
1956	0.00136
1955	0.00137
1954	0.00137
1953	0.00137
1952	0.00137
1951	0.00136
1950	0.00135
1949	0.00134
1948	0.00132
1947	0.00129
1946	0.00126
1945	0.00123
1944	0.0012
1943	0.00117
1942	0.00113
1941	0.0011
1940	0.00107
1939	0.00104
1938	0.00102
1937	0.001
1936	0.001
1935	0.001
1934	0.00102
1933	0.00104
1932	0.00108
1931	0.00112
1930	0.00117
1929	0.00123
1928	0.00128
1927	0.00134
1926	0.0014
1925	0.00145
1924	0.00149
1923	0.00154
1922	0.00157
1921	0.0016
1920	0.00162
1919	0.00163
1918	0.00164
1917	0.00164
1916	0.00164
1915	0.00163
1914	0.00162
1913	0.0016
1912	0.00158
1911	0.00155
1910	0.00152
1909	0.00149
1908	0.00146
1907	0.00142
1906	0.00139
1905	0.00135
1904	0.00132
1903	0.00129
1902	0.00126
1901	0.00124
1900	0.00122
1899	0.00121
1898	0.00121
1897	0.00121
1896	0.00121
1895	0.00123
1894	0.00125
1893	0.00127
1892	0.00131
1891	0.00135
1890	0.00139
1889	0.00144
1888	0.0015
1887	0.00155
1886	0.00162
1885	0.00168
1884	0.00175
1883	0.00182
1882	0.00189
1881	0.00196
1880	0.00203
1879	0.0021
1878	0.00217
1877	0.00223
1876	0.0023
1875	0.00237
1874	0.00243
1873	0.0025
1872	0.00256
1871	0.00263
1870	0.00269
1869	0.00276
1868	0.00283
1867	0.0029
1866	0.00298
1865	0.00307
1864	0.00316
1863	0.00326
1862	0.00338
1861	0.00351
1860	0.00365
1859	0.00382
1858	0.004
1857	0.00422
1856	0.00447
1855	0.00476
1854	0.00509
1853	0.00548
1852	0.00593
1851	0.00645
1850	0.00706
1849	0.00777
1848	0.00861
1847	0.0096
1846	0.01077
1845	0.01215
1844	0.01379
1843	0.01573
1842	0.01806
1841	0.02084
1840	0.02416
1839	0.02814
1838	0.03291
1837	0.03862
1836	0.04544
1835	0.05357
1834	0.06324
1833	0.07466
1832	0.08812
1831	0.10388
1830	0.12224
1829	0.14352
1828	0.16808
1827	0.19631
1826	0.22867
1825	0.26572
1824	0.30815
1823	0.35679
1822	0.41274
1821	0.47734
1820	0.55236
1819	0.64015
1818	0.74356
1817	0.86641
1816	1.0137
1815	1.19199
1814	1.41001
1813	1.67938
1812	2.01563
1811	2.43959
1810	2.97911
1809	3.67042
1808	4.5621
1807	5.71512
1806	7.20291
1805	9.10669
1804	11.50418
1803	14.45109
1802	17.95944
1801	21.98246
1800	26.41684
1799	31.13041
1798	35.98349
1797	40.86761
1796	45.70704
1795	50.4491
1794	55.05208
1793	59.47847
1792	63.69417
1791	67.67354
1790	71.40371
1789	74.88294
1788	78.11497
1787	81.10194
1786	83.83846
1785	86.31042
1784	88.50009
1783	90.39825
1782	92.01453
1781	93.37903
1780	94.5341
1779	95.52157
1778	96.37196
1777	97.10275
1776	97.72121
1775	98.23109
1774	98.63786
1773	98.95116
1772	99.18416
1771	99.35173
1770	99.46827
1769	99.54616
1768	99.59517
1767	99.6227
1766	99.63432
1765	99.63452
1764	99.627
1763	99.61482
1762	99.60087
1761	99.58737
1760	99.57607
1759	99.56809
1758	99.56414
1757	99.56409
1756	99.56745
1755	99.57336
1754	99.58073
1753	99.58835
1752	99.59514
1751	99.60019
1750	99.60285
1749	99.60286
1748	99.60029
1747	99.59551
1746	99.58916
1745	99.58202
1744	99.575
1743	99.56895
1742	99.56459
1741	99.56244
1740	99.56287
1739	99.56584
1738	99.57112
1737	99.57817
1736	99.5864
1735	99.59489
1734	99.60286
1733	99.60936
1732	99.61382
1731	99.61555
1730	99.61435
1729	99.61009
1728	99.60302
1727	99.59364
1726	99.58245
1725	99.57036
1724	99.55822
1723	99.54681
1722	99.53697
1721	99.52928
1720	99.52425
1719	99.52203
1718	99.52263
1717	99.52574
1716	99.53094
1715	99.53751
1714	99.54464
1713	99.55151
1712	99.55732
1711	99.56138
1710	99.56304
1709	99.56199
1708	99.5581
1707	99.55148
1706	99.5425
1705	99.53168
1704	99.51971
1703	99.50748
1702	99.4957
1701	99.48518
1700	99.47664
1699	99.47057
1698	99.46738
1697	99.46716
1696	99.46979
1695	99.47498
1694	99.48223
1693	99.49091
1692	99.50031
1691	99.50969
1690	99.51843
1689	99.52591
1688	99.5317
1687	99.53562
1686	99.53754
1685	99.53766
1684	99.53629
1683	99.53378
1682	99.53068
1681	99.52753
1680	99.52486
1679	99.52307
1678	99.52245
1677	99.52318
1676	99.52523
1675	99.52839
1674	99.53229
1673	99.53661
1672	99.5407
1671	99.54403
1670	99.54607
1669	99.54642
1668	99.54484
1667	99.54112
1666	99.53541
1665	99.52786
1664	99.51895
1663	99.50927
1662	99.49932
1661	99.48981
1660	99.48146
1659	99.47473
1658	99.4701
1657	99.46783
1656	99.46803
1655	99.47049
1654	99.47501
1653	99.48112
1652	99.48819
1651	99.49571
1650	99.50298
1649	99.50941
1648	99.51469
1647	99.51849
1646	99.52071
1645	99.52146
1644	99.521
1643	99.51974
1642	99.51836
1641	99.51723
1640	99.51703
1639	99.51826
1638	99.52122
1637	99.52611
1636	99.53297
1635	99.5416
1634	99.55157
1633	99.56228
1632	99.57312
1631	99.58328
1630	99.59217
1629	99.59909
1628	99.60361
1627	99.6055
1626	99.60475
1625	99.60159
1624	99.59644
1623	99.58997
1622	99.58296
1621	99.57627
1620	99.5707
1619	99.56699
1618	99.5657
1617	99.56709
1616	99.57138
1615	99.57825
1614	99.5872
1613	99.59762
1612	99.6085
1611	99.61894
1610	99.62786
1609	99.63448
1608	99.63797
1607	99.63787
1606	99.63395
1605	99.62634
1604	99.61549
1603	99.60213
1602	99.58716
1601	99.57164
1600	99.55666
1599	99.54333
1598	99.53252
1597	99.52489
1596	99.52098
1595	99.52067
1594	99.52391
1593	99.53004
1592	99.53838
1591	99.54791
1590	99.55762
1589	99.56657
1588	99.57381
1587	99.57865
1586	99.58064
1585	99.5797
1584	99.57598
1583	99.56985
1582	99.56199
1581	99.55317
1580	99.54429
1579	99.53612
1578	99.52942
1577	99.52472
1576	99.52232
1575	99.52227
1574	99.52437
1573	99.52819
1572	99.5332
1571	99.53867
1570	99.54395
1569	99.54853
1568	99.5519
1567	99.55386
1566	99.55446
1565	99.55394
1564	99.55283
1563	99.55167
1562	99.55131
1561	99.55241
1560	99.55557
1559	99.56123
1558	99.56967
1557	99.58068
1556	99.59389
1555	99.60868
1554	99.62412
1553	99.63904
1552	99.65247
1551	99.66329
1550	99.67072
