#https://www.thorlabs.com/newgrouppage9.cfm?objectgroup_id=15605
#note that this does not include reflectance of surface
#Wavelength (nm)	emittance
200	0.5099644
202	0.4916851
204	0.4729083
206	0.4540632
208	0.4358804
210	0.4190644
212	0.4039989
214	0.3908297
216	0.37869
218	0.366828
220	0.3557166
222	0.3451666
224	0.335087
226	0.3253298
228	0.3157424
230	0.3063584
232	0.2970666
234	0.2883234
236	0.2796203
238	0.2710577
240	0.2624095
242	0.2539065
244	0.2460403
246	0.2382644
248	0.2310271
250	0.2238994
252	0.217292
254	0.2109521
256	0.2050028
258	0.1992493
260	0.1938171
262	0.1885425
264	0.1836486
266	0.178907
268	0.1741282
270	0.1698241
272	0.1656101
274	0.1614372
276	0.1573457
278	0.1532669
280	0.1493679
282	0.1456467
284	0.1419444
286	0.1381485
288	0.1343098
290	0.1308789
292	0.1273609
294	0.1241589
296	0.1212752
298	0.1182988
300	0.115403
302	0.1126027
304	0.110237
306	0.1077298
308	0.1051297
310	0.1027121
312	0.1003249
314	0.0980832
316	0.0958848
318	0.0938311
320	0.0918492
322	0.0897281
324	0.0876133
326	0.0858507
328	0.0839736
330	0.0819647
332	0.0801476
334	0.07871
336	0.077144
338	0.0753522
340	0.073908
342	0.0722575
344	0.070663
346	0.0692865
348	0.0678165
350	0.0665403
352	0.0652052
354	0.0637853
356	0.0626052
358	0.0616655
360	0.0604372
362	0.0592918
364	0.0579852
366	0.0569533
368	0.055838
370	0.0547969
372	0.0538252
374	0.0527637
376	0.0518895
378	0.050908
380	0.0499897
382	0.0489803
384	0.0481966
386	0.0473147
388	0.0466612
390	0.0457248
392	0.0448274
394	0.0440048
396	0.043351
398	0.0425406
400	0.0417865
402	0.0410843
404	0.0402587
406	0.0396099
408	0.0390535
410	0.0383682
412	0.0377269
414	0.0371728
416	0.0365333
418	0.0358722
420	0.0353056
422	0.0347773
424	0.0344617
426	0.033924
428	0.0332464
430	0.0327931
432	0.0322602
434	0.0318147
436	0.0314246
438	0.0309643
440	0.0302514
442	0.0298024
444	0.0294957
446	0.0291269
448	0.0287275
450	0.028296
452	0.0278455
454	0.0275156
456	0.0271723
458	0.02674
460	0.0263791
462	0.0259689
464	0.0255582
466	0.025332
468	0.024953
470	0.0245844
472	0.0241812
474	0.023935
476	0.0236821
478	0.0233329
480	0.0230441
482	0.0227632
484	0.0224816
486	0.022023
488	0.0218117
490	0.0216662
492	0.0212904
494	0.0209701
496	0.0208263
498	0.020639
500	0.0202184
502	0.0199489
504	0.019641
506	0.0195919
508	0.019258
510	0.0190379
512	0.0187999
514	0.0185688
516	0.0183916
518	0.0181637
520	0.0180549
522	0.0177268
524	0.0174956
526	0.0172708
528	0.0171448
530	0.0169032
532	0.0167168
534	0.0165151
536	0.0163874
538	0.016154
540	0.0159825
542	0.01579
544	0.0156446
546	0.0155865
548	0.0154406
550	0.015301
552	0.0151904
554	0.0149798
556	0.0148407
558	0.014597
560	0.0144706
562	0.0143154
564	0.0141865
566	0.0141468
568	0.0139907
570	0.0138446
572	0.0137222
574	0.0135614
576	0.013411
578	0.0133073
580	0.0131847
582	0.0130459
584	0.0129763
586	0.0128495
588	0.0126644
590	0.0125621
592	0.0124613
594	0.0122961
596	0.0121233
598	0.0120077
600	0.0118408
602	0.0117089
604	0.0116289
606	0.0115731
608	0.011501
610	0.0113917
612	0.011286
614	0.0111628
616	0.0110622
618	0.0110188
620	0.0108766
622	0.0107477
624	0.0106184
626	0.0105364
628	0.010423
630	0.0102832
632	0.0102336
634	0.0101519
636	0.0100197
638	0.0099689
640	0.0099413
642	0.0098215
644	0.0098161
646	0.0097677
648	0.0095936
650	0.0095006
652	0.0094187
654	0.0093592
656	0.009284
658	0.009252
660	0.0092263
662	0.0091069
664	0.0090354
666	0.0090213
668	0.0089539
670	0.0088279
672	0.0087715
674	0.0087958
676	0.0087752
678	0.0085699
680	0.0083917
682	0.0083793
684	0.0083487
686	0.0083402
688	0.0083246
690	0.0081906
692	0.0081394
694	0.0081709
696	0.0081632
698	0.0079768
700	0.0077533
702	0.0076529
704	0.0076211
706	0.007684
708	0.0076518
710	0.0076066
712	0.0075737
714	0.0075152
716	0.0074179
718	0.0073748
720	0.007328
722	0.0072539
724	0.0072889
726	0.0072995
728	0.0071615
730	0.0070344
732	0.0069494
734	0.0069402
736	0.0069442
738	0.0069597
740	0.0068441
742	0.0066817
744	0.0066878
746	0.0067691
748	0.0068225
750	0.0067067
752	0.0065899
754	0.0065497
756	0.0064327
758	0.0064228
760	0.0064115
762	0.0063243
764	0.0062441
766	0.0061312
768	0.0060788
770	0.0061444
772	0.0061957
774	0.0061089
776	0.0060713
778	0.0061335
780	0.0060475
782	0.0059924
784	0.006011
786	0.0058117
788	0.0058498
790	0.0060107
792	0.005897
794	0.0057027
796	0.0055817
798	0.0056605
800	0.0057142
802	0.005682
804	0.0056263
806	0.0056082
808	0.005499
810	0.005621
812	0.0056771
814	0.0054989
816	0.0053542
818	0.0052846
820	0.0053046
822	0.005269
824	0.0053912
826	0.0052458
828	0.0049813
830	0.0052783
832	0.0054358
834	0.0053598
836	0.0051617
838	0.004984
840	0.0052672
842	0.0052059
844	0.0052527
846	0.0054139
848	0.0053627
850	0.0050602
852	0.0051192
854	0.0051427
856	0.0050306
858	0.0050828
860	0.0050634
862	0.0055565
864	0.0050944
866	0.0047006
868	0.0047111
870	0.0047225
872	0.0047495
874	0.0048678
876	0.004868
878	0.00476
880	0.0047745
882	0.0049667
884	0.0050386
886	0.0049075
888	0.0049254
890	0.0048075
892	0.0047977
894	0.0047698
896	0.0049009
898	0.0049493
900	0.0049081
902	0.0049491
904	0.0048937
906	0.0048849
908	0.0049245
910	0.0050162
912	0.0048028
914	0.0047185
916	0.0047757
918	0.004724
920	0.0045835
922	0.0048063
924	0.0046878
926	0.0047302
928	0.0046887
930	0.0047286
932	0.0048525
934	0.0049926
936	0.0049233
938	0.0048169
940	0.0046088
942	0.0044293
944	0.0046599
946	0.0047788
948	0.0048627
950	0.0046994
952	0.0047019
954	0.0047602
956	0.0045835
958	0.0046386
960	0.0045506
962	0.0046069
964	0.0047133
966	0.0044798
968	0.0045171
970	0.0045435
972	0.0045439
974	0.0043802
976	0.0044731
978	0.0043756
980	0.0043247
982	0.0044438
984	0.0043404
986	0.0043278
988	0.0046298
990	0.0046105
992	0.0045722
994	0.0044587
996	0.004703
998	0.0043721
1000	0.0041625
1002	0.0042381
1004	0.0044565
1006	0.0044658
1008	0.0043097
1010	0.0041856
1012	0.0042099
1014	0.0042449
1016	0.0042072
1018	0.0042462
1020	0.0042232
1022	0.0042394
1024	0.0041871
1026	0.0043888
1028	0.004189
1030	0.004252
1032	0.0043273
1034	0.0042589
1036	0.0041897
1038	0.004363
1040	0.0042453
1042	0.0042318
1044	0.0042312
1046	0.0041346
1048	0.0038205
1050	0.0038029
1052	0.0039589
1054	0.0040194
1056	0.0040664
1058	0.0041293
1060	0.0039754
1062	0.0039455
1064	0.0038977
1066	0.0041362
1068	0.0038971
1070	0.0041109
1072	0.003887
1074	0.0037656
1076	0.0041374
1078	0.0043051
1080	0.0043134
1082	0.0039903
1084	0.0038391
1086	0.0040113
1088	0.0038504
1090	0.0039322
1092	0.0039695
1094	0.0036961
1096	0.0038344
1098	0.0037462
1100	0.0038794
1102	0.0037991
1104	0.0036115
1106	0.0037784
1108	0.0035303
1110	0.0037565
1112	0.0038416
1114	0.0039356
1116	0.0036385
1118	0.003456
1120	0.0035715
1122	0.0036643
1124	0.0035994
1126	0.003652
1128	0.0035962
1130	0.0036171
1132	0.0035163
1134	0.0035699
1136	0.0035115
1138	0.0035863
1140	0.0035148
1142	0.003541
1144	0.0035004
1146	0.0035278
1148	0.0036686
1150	0.0037391
1152	0.0036354
1154	0.0034282
1156	0.0035784
1158	0.0034451
1160	0.0032824
1162	0.0033588
1164	0.0036278
1166	0.0036085
1168	0.0035163
1170	0.0034937
1172	0.0035751
1174	0.003769
1176	0.0035157
1178	0.0034628
1180	0.0036188
1182	0.0033521
1184	0.003318
1186	0.0033885
1188	0.0033356
1190	0.0035149
1192	0.0034945
1194	0.0035037
1196	0.0034044
1198	0.0033836
1200	0.0034211
1202	0.0034988
1204	0.0031034
1206	0.0030085
1208	0.0032922
1210	0.00343
1212	0.0034322
1214	0.0034838
1216	0.0035967
1218	0.0036303
1220	0.0035219
1222	0.003335
1224	0.0030456
1226	0.0033423
1228	0.0035414
1230	0.0034548
1232	0.0034306
1234	0.0035063
1236	0.0035664
1238	0.0034137
1240	0.0033057
1242	0.0030239
1244	0.0029668
1246	0.0032301
1248	0.0032692
1250	0.0034491
1252	0.0033594
1254	0.0033351
1256	0.0033541
1258	0.0031531
1260	0.0032502
1262	0.0032221
1264	0.0032216
1266	0.0032023
1268	0.0032344
1270	0.0032751
1272	0.003224
1274	0.0033027
1276	0.0029755
1278	0.0029078
1280	0.0030088
1282	0.0032245
1284	0.0029821
1286	0.002906
1288	0.0031664
1290	0.0032331
1292	0.0032361
1294	0.0033075
1296	0.0032874
1298	0.0032135
1300	0.003092
1302	0.0031434
1304	0.003184
1306	0.003276
1308	0.003304
1310	0.0030829
1312	0.0029589
1314	0.0031155
1316	0.0031378
1318	0.0030807
1320	0.0031703
1322	0.0030677
1324	0.0030583
1326	0.0031638
1328	0.0032058
1330	0.0031634
1332	0.0029752
1334	0.0031644
1336	0.0031289
1338	0.0030223
1340	0.002987
1342	0.0031586
1344	0.0031809
1346	0.0030338
1348	0.0029295
1350	0.0027717
1352	0.0028085
1354	0.0029221
1356	0.0031538
1358	0.0031522
1360	0.0029921
1362	0.0029516
1364	0.0030715
1366	0.0028787
1368	0.0029466
1370	0.0031907
1372	0.0031818
1374	0.0033298
1376	0.0034162
1378	0.0034966
1380	0.0035428
1382	0.0035061
1384	0.0033456
1386	0.0030767
1388	0.0030022
1390	0.003132
1392	0.0031778
1394	0.0031685
1396	0.0031052
1398	0.0030405
1400	0.0030269
1402	0.0029229
1404	0.0029197
1406	0.0029753
1408	0.0029222
1410	0.0030407
1412	0.003136
1414	0.0030309
1416	0.0028415
1418	0.0027469
1420	0.002997
1422	0.0030716
1424	0.0030174
1426	0.0029341
1428	0.0028328
1430	0.0029386
1432	0.0029227
1434	0.0028904
1436	0.0029297
1438	0.0028694
1440	0.002826
1442	0.0026993
1444	0.0024708
1446	0.0024665
1448	0.0025549
1450	0.0026131
1452	0.0029316
1454	0.0032781
1456	0.0032023
1458	0.0029308
1460	0.0026883
1462	0.0025847
1464	0.0026204
1466	0.0028097
1468	0.0029499
1470	0.0027681
1472	0.0027811
1474	0.0029123
1476	0.0029735
1478	0.0029579
1480	0.0029152
1482	0.0029141
1484	0.0029643
1486	0.0029054
1488	0.0029356
1490	0.0030083
1492	0.0029238
1494	0.0028682
1496	0.0029641
1498	0.0029843
1500	0.0028437
1502	0.0027045
1504	0.0027926
1506	0.002885
1508	0.0028573
1510	0.0028974
1512	0.0028863
1514	0.0029078
1516	0.0029202
1518	0.0028603
1520	0.0028517
1522	0.0028707
1524	0.0027816
1526	0.0027873
1528	0.0028574
1530	0.0028386
1532	0.0028698
1534	0.0028932
1536	0.0026661
1538	0.0026373
1540	0.0027778
1542	0.0028559
1544	0.0028637
1546	0.0028482
1548	0.0028373
1550	0.0029033
1552	0.0030551
1554	0.0031758
1556	0.0030758
1558	0.003
1560	0.0029067
1562	0.0027851
1564	0.0026847
1566	0.0026951
1568	0.0027498
1570	0.0029315
1572	0.0031035
1574	0.0031415
1576	0.0029059
1578	0.0029003
1580	0.0030365
1582	0.0029383
1584	0.0029817
1586	0.0029006
1588	0.0030134
1590	0.0029788
1592	0.0030747
1594	0.0031719
1596	0.0027548
1598	0.0028309
1600	0.0031055
1602	0.0030573
1604	0.0031142
1606	0.0029972
1608	0.0029259
1610	0.0029819
1612	0.0030691
1614	0.0030656
1616	0.0031104
1618	0.0031407
1620	0.0030608
1622	0.0030747
1624	0.0030952
1626	0.0030798
1628	0.0029349
1630	0.0030495
1632	0.0028398
1634	0.0027705
1636	0.0030075
1638	0.0031118
1640	0.0030421
1642	0.0031526
1644	0.0032412
1646	0.0031857
1648	0.0032464
1650	0.0031582
1652	0.0031506
1654	0.0030421
1656	0.0030053
1658	0.0031763
1660	0.0030996
1662	0.003137
1664	0.00306
1666	0.0029396
1668	0.0030461
1670	0.0032644
1672	0.0033972
1674	0.0033149
1676	0.0032375
1678	0.0034274
1680	0.003289
1682	0.0034035
1684	0.003237
1686	0.0032798
1688	0.0033605
1690	0.0034995
1692	0.0034707
1694	0.0034298
1696	0.0032968
1698	0.0033272
1700	0.0033041
1702	0.0034764
1704	0.0033183
1706	0.003391
1708	0.0035221
1710	0.0034394
1712	0.0035102
1714	0.0035542
1716	0.0036168
1718	0.0037681
1720	0.0036909
1722	0.0032914
1724	0.0033613
1726	0.0034743
1728	0.0036078
1730	0.0034785
1732	0.0034728
1734	0.0035678
1736	0.0035466
1738	0.0035414
1740	0.0037696
1742	0.0038771
1744	0.003618
1746	0.0036839
1748	0.003668
1750	0.0035889
1752	0.0037032
1754	0.0036714
1756	0.0037682
1758	0.0038109
1760	0.003863
1762	0.0038432
1764	0.0036946
1766	0.0034773
1768	0.0036654
1770	0.0036317
1772	0.0038102
1774	0.0039794
1776	0.0038977
1778	0.004002
1780	0.0039696
1782	0.0038983
1784	0.0038086
1786	0.0037432
1788	0.0037595
1790	0.0041
1792	0.0043329
1794	0.0041784
1796	0.0040303
1798	0.0040193
1800	0.0043217
1802	0.0043141
1804	0.0041154
1806	0.0038839
1808	0.0038564
1810	0.0040802
1812	0.0038746
1814	0.0037764
1816	0.0040228
1818	0.0038886
1820	0.0039959
1822	0.0041171
1824	0.0042456
1826	0.0043364
1828	0.0041904
1830	0.0041161
1832	0.0040402
1834	0.0041057
1836	0.0042198
1838	0.0040548
1840	0.0043033
1842	0.0043472
1844	0.00458
1846	0.0043387
1848	0.0043552
1850	0.0043929
1852	0.0043411
1854	0.0044718
1856	0.0043625
1858	0.0042512
1860	0.0045999
1862	0.004557
1864	0.004758
1866	0.0047188
1868	0.0043334
1870	0.0041742
1872	0.0042943
1874	0.0049196
1876	0.0045539
1878	0.004919
1880	0.0049038
1882	0.0048893
1884	0.0048872
1886	0.0049131
1888	0.005068
1890	0.004879
1892	0.0051109
1894	0.0052093
1896	0.0052425
1898	0.0049457
1900	0.0051307
1902	0.0050924
1904	0.004965
1906	0.0052029
1908	0.0051881
1910	0.0051209
1912	0.0050577
1914	0.0053779
1916	0.0052692
1918	0.0054778
1920	0.005349
1922	0.0055167
1924	0.0054641
1926	0.0053444
1928	0.0054655
1930	0.0055795
1932	0.0055497
1934	0.0054932
1936	0.005349
1938	0.0054996
1940	0.0053261
1942	0.0054926
1944	0.0055829
1946	0.0054007
1948	0.0055465
1950	0.0058094
1952	0.005934
1954	0.0059079
1956	0.0057249
1958	0.0060872
1960	0.0058868
1962	0.0060029
1964	0.0059241
1966	0.0060234
1968	0.0061713
1970	0.0059155
1972	0.0060518
1974	0.0061647
1976	0.0062576
1978	0.0062608
1980	0.0062773
1982	0.0063122
1984	0.0060925
1986	0.0060325
1988	0.0063308
1990	0.0062495
1992	0.0062753
1994	0.0064327
1996	0.0063718
1998	0.0062779
2000	0.0062761
2002	0.0064195
2004	0.0065909
2006	0.006534
2008	0.0066969
2010	0.0067159
2012	0.0066451
2014	0.0065015
2016	0.0065589
2018	0.0066036
2020	0.0064946
2022	0.0064551
2024	0.0065528
2026	0.0065464
2028	0.0064542
2030	0.0065791
2032	0.0067754
2034	0.0068581
2036	0.0067965
2038	0.0066464
2040	0.006926
2042	0.0068851
2044	0.0069836
2046	0.0069891
2048	0.0070561
2050	0.0070608
2052	0.0069678
2054	0.0072032
2056	0.0072554
2058	0.0073029
2060	0.0072717
2062	0.0073134
2064	0.007366
2066	0.0075535
2068	0.007587
2070	0.0074606
2072	0.0073488
2074	0.0073178
2076	0.0074345
2078	0.0075798
2080	0.0076549
2082	0.0075628
2084	0.0074825
2086	0.0076698
2088	0.0077634
2090	0.00781
2092	0.0078175
2094	0.0077752
2096	0.007566
2098	0.0077516
2100	0.0078072
2102	0.0078915
2104	0.0080362
2106	0.0081136
2108	0.0080865
2110	0.0082049
2112	0.0082751
2114	0.0081132
2116	0.0079106
2118	0.0080077
2120	0.008257
2122	0.0081958
2124	0.008174
2126	0.0083376
2128	0.008422
2130	0.0085794
2132	0.0085945
2134	0.0085842
2136	0.0085648
2138	0.0084585
2140	0.0084601
2142	0.0086968
2144	0.0087964
2146	0.0086534
2148	0.0086377
2150	0.0087513
2152	0.0086767
2154	0.0088332
2156	0.0088881
2158	0.0089652
2160	0.0089211
2162	0.0087543
2164	0.009031
2166	0.0092182
2168	0.0091799
2170	0.0092215
2172	0.0093711
2174	0.0094017
2176	0.0092864
2178	0.009405
2180	0.0095659
2182	0.0096228
2184	0.0097164
2186	0.0098611
2188	0.0098927
2190	0.0099538
2192	0.010062
2194	0.0101839
2196	0.0102293
2198	0.0105058
2200	0.0107407
2202	0.0108386
2204	0.0109994
2206	0.011249
2208	0.0114671
2210	0.0116391
2212	0.011718
2214	0.0116694
2216	0.0115429
2218	0.0114262
2220	0.0115154
2222	0.0115907
2224	0.011453
2226	0.0114938
2228	0.0115712
2230	0.0114839
2232	0.0112716
2234	0.0114143
2236	0.011617
2238	0.0115925
2240	0.0115568
2242	0.011415
2244	0.0114644
2246	0.0115598
2248	0.0116792
2250	0.0117631
2252	0.0117675
2254	0.0117522
2256	0.0116913
2258	0.011655
2260	0.0117925
2262	0.0119934
2264	0.0118604
2266	0.0117057
2268	0.0116594
2270	0.011683
2272	0.01164
2274	0.0117125
2276	0.0117416
2278	0.0116824
2280	0.01166
2282	0.011571
2284	0.0114909
2286	0.011508
2288	0.0115938
2290	0.0117979
2292	0.0118785
2294	0.0118791
2296	0.0118312
2298	0.0117215
2300	0.0117083
2302	0.0117676
2304	0.0117761
2306	0.0117643
2308	0.0119306
2310	0.0118946
2312	0.0116893
2314	0.0117583
2316	0.0118584
2318	0.0118078
2320	0.011878
2322	0.0119191
2324	0.0120441
2326	0.0121745
2328	0.0122668
2330	0.0123413
2332	0.0123107
2334	0.0123275
2336	0.0125001
2338	0.0125012
2340	0.0124044
2342	0.0125792
2344	0.0126817
2346	0.0127153
2348	0.0126765
2350	0.012666
2352	0.0127774
2354	0.0129043
2356	0.0130349
2358	0.0129807
2360	0.0129954
2362	0.0131077
2364	0.01307
2366	0.0130272
2368	0.0131033
2370	0.0131984
2372	0.013257
2374	0.0132709
2376	0.0134016
2378	0.0135651
2380	0.0134539
2382	0.0134304
2384	0.0135483
2386	0.0137027
2388	0.013786
2390	0.0138092
2392	0.0135221
2394	0.0136048
2396	0.0137893
2398	0.014123
2400	0.0141479
2402	0.0141286
2404	0.0142338
2406	0.0144203
2408	0.0142294
2410	0.0142817
2412	0.0144001
2414	0.0144137
2416	0.0145381
2418	0.0146905
2420	0.014747
2422	0.014686
2424	0.0147521
2426	0.0149163
2428	0.0152594
2430	0.0152234
2432	0.0149192
2434	0.0150082
2436	0.0151868
2438	0.0153573
2440	0.015576
2442	0.0155077
2444	0.0153362
2446	0.0154296
2448	0.0155737
2450	0.0157269
2452	0.0157944
2454	0.0160497
2456	0.0160066
2458	0.0160047
2460	0.0159841
2462	0.0157972
2464	0.0160931
2466	0.0161737
2468	0.0161132
2470	0.015981
2472	0.0163655
2474	0.0165735
2476	0.016392
2478	0.0165292
2480	0.0167293
2482	0.0166198
2484	0.0167879
2486	0.016928
2488	0.0167977
2490	0.0167561
2492	0.0167071
2494	0.0171321
2496	0.0172036
2498	0.0172121
2500	0.0171215
2502	0.0171439
2504	0.0172898
2506	0.0171934
2508	0.0174334
2510	0.0173693
2512	0.0175863
2514	0.0174788
2516	0.0175941
2518	0.0176453
2520	0.0174194
2522	0.0175552
2524	0.0175255
2526	0.0176907
2528	0.0178395
2530	0.0181265
2532	0.0180415
2534	0.0181761
2536	0.0182055
2538	0.0183892
2540	0.0182678
2542	0.0182559
2544	0.0181469
2546	0.0183434
2548	0.0186447
2550	0.0188897
2552	0.0188289
2554	0.018727
2556	0.0185458
2558	0.0186722
2560	0.018508
2562	0.0191063
2564	0.0189017
2566	0.0189183
2568	0.0189383
2570	0.0189321
2572	0.0189629
2574	0.0191124
2576	0.0190307
2578	0.0192725
2580	0.0194177
2582	0.0198241
2584	0.0196906
2586	0.0197168
2588	0.0197496
2590	0.0197681
2592	0.0198658
2594	0.0200579
2596	0.0203905
2598	0.0199634
2600	0.0201558